#  WEST H-mode temperature profile - 20/06/2014 
#   R [m] 	 Te [eV]
2.529999999999999805e+00 5.877629873132866123e+03
2.530400000000000205e+00 5.876627713983772082e+03
2.530800000000000161e+00 5.875625554834678951e+03
2.531200000000000117e+00 5.874623395685585820e+03
2.531600000000000072e+00 5.873621236536493598e+03
2.532000000000000028e+00 5.872619077387400466e+03
2.532399999999999984e+00 5.871616918238307335e+03
2.532799999999999940e+00 5.870614759089214203e+03
2.533199999999999896e+00 5.869612599940121981e+03
2.533599999999999852e+00 5.868608848985141776e+03
2.533999999999999808e+00 5.867605085496257743e+03
2.534400000000000208e+00 5.866601322007371891e+03
2.534800000000000164e+00 5.865597558518486949e+03
2.535200000000000120e+00 5.864593795029602916e+03
2.535600000000000076e+00 5.863590031540717973e+03
2.536000000000000032e+00 5.862586268051833940e+03
2.536399999999999988e+00 5.861582504562948998e+03
2.536799999999999944e+00 5.860578741074064965e+03
2.537199999999999900e+00 5.859574977585180022e+03
2.537599999999999856e+00 5.858458908602500742e+03
2.537999999999999812e+00 5.856878646254456726e+03
2.538400000000000212e+00 5.855298383906410891e+03
2.538800000000000168e+00 5.853718121558366875e+03
2.539200000000000124e+00 5.852137859210322858e+03
2.539600000000000080e+00 5.850557596862278842e+03
2.540000000000000036e+00 5.848977334514234826e+03
2.540399999999999991e+00 5.847397072166190810e+03
2.540799999999999947e+00 5.845816809818146794e+03
2.541199999999999903e+00 5.844236547470102778e+03
2.541599999999999859e+00 5.842656285122058762e+03
2.541999999999999815e+00 5.840480129372741430e+03
2.542400000000000215e+00 5.837456752979857811e+03
2.542800000000000171e+00 5.834433376586976919e+03
2.543200000000000127e+00 5.831410000194096028e+03
2.543600000000000083e+00 5.828386623801215137e+03
2.544000000000000039e+00 5.825363247408335155e+03
2.544399999999999995e+00 5.822339871015454264e+03
2.544799999999999951e+00 5.819316494622573373e+03
2.545199999999999907e+00 5.816293118229692482e+03
2.545599999999999863e+00 5.813269741836811590e+03
2.545999999999999819e+00 5.810246365443930699e+03
2.546400000000000219e+00 5.807220600720413131e+03
2.546800000000000175e+00 5.804193537078757799e+03
2.547200000000000131e+00 5.801166473437103377e+03
2.547600000000000087e+00 5.798139409795448046e+03
2.548000000000000043e+00 5.795112346153792714e+03
2.548399999999999999e+00 5.792085282512137383e+03
2.548799999999999955e+00 5.789058218870482051e+03
2.549199999999999910e+00 5.786031155228826719e+03
2.549599999999999866e+00 5.783004091587172297e+03
2.549999999999999822e+00 5.779977027945516966e+03
2.550399999999999778e+00 5.776949964303861634e+03
2.550800000000000178e+00 5.773918685854828254e+03
2.551200000000000134e+00 5.770886916323330297e+03
2.551600000000000090e+00 5.767855146791831430e+03
2.552000000000000046e+00 5.764823377260333473e+03
2.552400000000000002e+00 5.761791607728835515e+03
2.552799999999999958e+00 5.758759838197336649e+03
2.553199999999999914e+00 5.755728068665838691e+03
2.553599999999999870e+00 5.752696299134340734e+03
2.553999999999999826e+00 5.749664529602842777e+03
2.554399999999999782e+00 5.746632760071343910e+03
2.554800000000000182e+00 5.743599420928411746e+03
2.555200000000000138e+00 5.740557856786940647e+03
2.555600000000000094e+00 5.737516292645470458e+03
2.556000000000000050e+00 5.734474728504000268e+03
2.556400000000000006e+00 5.731433164362530079e+03
2.556799999999999962e+00 5.728391600221058980e+03
2.557199999999999918e+00 5.725350036079588790e+03
2.557599999999999874e+00 5.722308471938118601e+03
2.557999999999999829e+00 5.719266907796647502e+03
2.558399999999999785e+00 5.716225343655177312e+03
2.558800000000000185e+00 5.713183779513703485e+03
2.559200000000000141e+00 5.709686341102734332e+03
2.559600000000000097e+00 5.705652517900482053e+03
2.560000000000000053e+00 5.701618694698230684e+03
2.560400000000000009e+00 5.697584871495978405e+03
2.560799999999999965e+00 5.693551048293727035e+03
2.561199999999999921e+00 5.689517225091474756e+03
2.561599999999999877e+00 5.685483401889222478e+03
2.561999999999999833e+00 5.681449578686971108e+03
2.562399999999999789e+00 5.677415755484718829e+03
2.562800000000000189e+00 5.673381932282462003e+03
2.563200000000000145e+00 5.669348109080210634e+03
2.563600000000000101e+00 5.664512443028229427e+03
2.564000000000000057e+00 5.659492160095405779e+03
2.564400000000000013e+00 5.654471877162582132e+03
2.564799999999999969e+00 5.649451594229758484e+03
2.565199999999999925e+00 5.644431311296935746e+03
2.565599999999999881e+00 5.639411028364112099e+03
2.565999999999999837e+00 5.634390745431288451e+03
2.566399999999999793e+00 5.629370462498464804e+03
2.566800000000000193e+00 5.624350179565635699e+03
2.567200000000000149e+00 5.619329896632812051e+03
2.567600000000000104e+00 5.614303629507208825e+03
2.568000000000000060e+00 5.609256641430608397e+03
2.568400000000000016e+00 5.604209653354007060e+03
2.568799999999999972e+00 5.599162665277406632e+03
2.569199999999999928e+00 5.594115677200806203e+03
2.569599999999999884e+00 5.589068689124205775e+03
2.569999999999999840e+00 5.584021701047605347e+03
2.570399999999999796e+00 5.578974712971004919e+03
2.570800000000000196e+00 5.573927724894398125e+03
2.571200000000000152e+00 5.568880736817797697e+03
2.571600000000000108e+00 5.563833748741197269e+03
2.572000000000000064e+00 5.558768300229764463e+03
2.572400000000000020e+00 5.553694610031698176e+03
2.572799999999999976e+00 5.548620919833632797e+03
2.573199999999999932e+00 5.543547229635566509e+03
2.573599999999999888e+00 5.538473539437500222e+03
2.573999999999999844e+00 5.533399849239433934e+03
2.574399999999999800e+00 5.528326159041367646e+03
2.574800000000000200e+00 5.523252468843295901e+03
2.575200000000000156e+00 5.518178778645229613e+03
2.575600000000000112e+00 5.513105088447163325e+03
2.576000000000000068e+00 5.508024934785604273e+03
2.576400000000000023e+00 5.502921047507270487e+03
2.576799999999999979e+00 5.497817160228935791e+03
2.577199999999999935e+00 5.492713272950601095e+03
2.577599999999999891e+00 5.487609385672267308e+03
2.577999999999999847e+00 5.482505498393932612e+03
2.578399999999999803e+00 5.477401611115598826e+03
2.578800000000000203e+00 5.472297723837258673e+03
2.579200000000000159e+00 5.467193836558923977e+03
2.579600000000000115e+00 5.462089949280590190e+03
2.580000000000000071e+00 5.456986062002255494e+03
2.580400000000000027e+00 5.451003024026512321e+03
2.580799999999999983e+00 5.444798446952654558e+03
2.581199999999999939e+00 5.438593869878795886e+03
2.581599999999999895e+00 5.432389292804938123e+03
2.581999999999999851e+00 5.426184715731079450e+03
2.582399999999999807e+00 5.419980138657221687e+03
2.582800000000000207e+00 5.413775561583356648e+03
2.583200000000000163e+00 5.407570984509497976e+03
2.583600000000000119e+00 5.401366407435640212e+03
2.584000000000000075e+00 5.395161830361781540e+03
2.584400000000000031e+00 5.388694638750497688e+03
2.584799999999999986e+00 5.381912049621511869e+03
2.585199999999999942e+00 5.375129460492525141e+03
2.585599999999999898e+00 5.368346871363539321e+03
2.585999999999999854e+00 5.361564282234553502e+03
2.586399999999999810e+00 5.354781693105566774e+03
2.586800000000000210e+00 5.347999103976573679e+03
2.587200000000000166e+00 5.341216514847586950e+03
2.587600000000000122e+00 5.334433925718601131e+03
2.588000000000000078e+00 5.327651336589614402e+03
2.588400000000000034e+00 5.320860221801799526e+03
2.588799999999999990e+00 5.314031263447145648e+03
2.589199999999999946e+00 5.307202305092490860e+03
2.589599999999999902e+00 5.300373346737836073e+03
2.589999999999999858e+00 5.293544388383181285e+03
2.590399999999999814e+00 5.286715430028526498e+03
2.590800000000000214e+00 5.279886471673864435e+03
2.591200000000000170e+00 5.273057513319209647e+03
2.591600000000000126e+00 5.266228554964555769e+03
2.592000000000000082e+00 5.259399596609900982e+03
2.592400000000000038e+00 5.252570638255246195e+03
2.592799999999999994e+00 5.245699043052884008e+03
2.593199999999999950e+00 5.238826716034092897e+03
2.593599999999999905e+00 5.231954389015301786e+03
2.593999999999999861e+00 5.225082061996510674e+03
2.594399999999999817e+00 5.218209734977719563e+03
2.594800000000000217e+00 5.211337407958921176e+03
2.595200000000000173e+00 5.204465080940130065e+03
2.595600000000000129e+00 5.197592753921338954e+03
2.596000000000000085e+00 5.190720426902548752e+03
2.596400000000000041e+00 5.183848099883757641e+03
2.596799999999999997e+00 5.176939966577932864e+03
2.597199999999999953e+00 5.170025353320237627e+03
2.597599999999999909e+00 5.163110740062542391e+03
2.597999999999999865e+00 5.156196126804848063e+03
2.598399999999999821e+00 5.149281513547152827e+03
2.598800000000000221e+00 5.142366900289450314e+03
2.599200000000000177e+00 5.135452287031755077e+03
2.599600000000000133e+00 5.128537673774060750e+03
2.600000000000000089e+00 5.121623060516365513e+03
2.600400000000000045e+00 5.114708447258671185e+03
2.600800000000000001e+00 5.107111930571750236e+03
2.601199999999999957e+00 5.099314460412598237e+03
2.601599999999999913e+00 5.091516990253446238e+03
2.601999999999999869e+00 5.083719520094294239e+03
2.602399999999999824e+00 5.075922049935141331e+03
2.602799999999999780e+00 5.068124579775989332e+03
2.603200000000000180e+00 5.060327109616829148e+03
2.603600000000000136e+00 5.052529639457677149e+03
2.604000000000000092e+00 5.044732169298525150e+03
2.604400000000000048e+00 5.036934699139373151e+03
2.604800000000000004e+00 5.028956812268509566e+03
2.605199999999999960e+00 5.020922321762736829e+03
2.605599999999999916e+00 5.012887831256964091e+03
2.605999999999999872e+00 5.004853340751191354e+03
2.606399999999999828e+00 4.996818850245418616e+03
2.606799999999999784e+00 4.988784359739645879e+03
2.607200000000000184e+00 4.980749869233864047e+03
2.607600000000000140e+00 4.972715378728091309e+03
2.608000000000000096e+00 4.964680888222318572e+03
2.608400000000000052e+00 4.956646397716545835e+03
2.608800000000000008e+00 4.948576653592875118e+03
2.609199999999999964e+00 4.940498618335474930e+03
2.609599999999999920e+00 4.932420583078075651e+03
2.609999999999999876e+00 4.924342547820675463e+03
2.610399999999999832e+00 4.916264512563275275e+03
2.610799999999999788e+00 4.908186477305875087e+03
2.611200000000000188e+00 4.900108442048465804e+03
2.611600000000000144e+00 4.892030406791066525e+03
2.612000000000000099e+00 4.883952371533666337e+03
2.612400000000000055e+00 4.875874336276266149e+03
2.612800000000000011e+00 4.867760651385350684e+03
2.613199999999999967e+00 4.859643511515788305e+03
2.613599999999999923e+00 4.851526371646225925e+03
2.613999999999999879e+00 4.843409231776664456e+03
2.614399999999999835e+00 4.835292091907102076e+03
2.614799999999999791e+00 4.827174952037539697e+03
2.615200000000000191e+00 4.819057812167969132e+03
2.615600000000000147e+00 4.810940672298406753e+03
2.616000000000000103e+00 4.802823532428844373e+03
2.616400000000000059e+00 4.794704212237264073e+03
2.616800000000000015e+00 4.786551553097579017e+03
2.617199999999999971e+00 4.778398893957893961e+03
2.617599999999999927e+00 4.770246234818207995e+03
2.617999999999999883e+00 4.762093575678522939e+03
2.618399999999999839e+00 4.753940916538836973e+03
2.618799999999999795e+00 4.745788257399151917e+03
2.619200000000000195e+00 4.737635598259457765e+03
2.619600000000000151e+00 4.729482939119772709e+03
2.620000000000000107e+00 4.721330279980086743e+03
2.620400000000000063e+00 4.713047460502013564e+03
2.620800000000000018e+00 4.704382431603095029e+03
2.621199999999999974e+00 4.695717402704177402e+03
2.621599999999999930e+00 4.687052373805258867e+03
2.621999999999999886e+00 4.678387344906341241e+03
2.622399999999999842e+00 4.669722316007422705e+03
2.622799999999999798e+00 4.661057287108504170e+03
2.623200000000000198e+00 4.652392258209576539e+03
2.623600000000000154e+00 4.643727229310658913e+03
2.624000000000000110e+00 4.635062200411740378e+03
2.624400000000000066e+00 4.626371845762693738e+03
2.624800000000000022e+00 4.617654709136365454e+03
2.625199999999999978e+00 4.608937572510037171e+03
2.625599999999999934e+00 4.600220435883708888e+03
2.625999999999999890e+00 4.591503299257380604e+03
2.626399999999999846e+00 4.582786162631052321e+03
2.626799999999999802e+00 4.574069026004724037e+03
2.627200000000000202e+00 4.565351889378385749e+03
2.627600000000000158e+00 4.556634752752057466e+03
2.628000000000000114e+00 4.547917616125729182e+03
2.628400000000000070e+00 4.539177015675467374e+03
2.628800000000000026e+00 4.530428800002892785e+03
2.629199999999999982e+00 4.521680584330319107e+03
2.629599999999999937e+00 4.512932368657744519e+03
2.629999999999999893e+00 4.504184152985170840e+03
2.630399999999999849e+00 4.495435937312596252e+03
2.630799999999999805e+00 4.486687721640021664e+03
2.631200000000000205e+00 4.477939505967437981e+03
2.631600000000000161e+00 4.469191290294863393e+03
2.632000000000000117e+00 4.460441370518179610e+03
2.632400000000000073e+00 4.451664019305558213e+03
2.632800000000000029e+00 4.442886668092937725e+03
2.633199999999999985e+00 4.434109316880316328e+03
2.633599999999999941e+00 4.425331965667694931e+03
2.633999999999999897e+00 4.416554614455073533e+03
2.634399999999999853e+00 4.407777263242452136e+03
2.634799999999999809e+00 4.398999912029830739e+03
2.635200000000000209e+00 4.390222560817200247e+03
2.635600000000000165e+00 4.381445209604578849e+03
2.636000000000000121e+00 4.372655234935878070e+03
2.636400000000000077e+00 4.363845860079086378e+03
2.636800000000000033e+00 4.355036485222293777e+03
2.637199999999999989e+00 4.346227110365501176e+03
2.637599999999999945e+00 4.337417735508709484e+03
2.637999999999999901e+00 4.328608360651916882e+03
2.638399999999999856e+00 4.319798985795124281e+03
2.638799999999999812e+00 4.310989610938331680e+03
2.639200000000000212e+00 4.302180236081529983e+03
2.639600000000000168e+00 4.293370861224737382e+03
2.640000000000000124e+00 4.284501175967714516e+03
2.640400000000000080e+00 4.275612226367165931e+03
2.640800000000000036e+00 4.266723276766617346e+03
2.641199999999999992e+00 4.257834327166068761e+03
2.641599999999999948e+00 4.248945377565520175e+03
2.641999999999999904e+00 4.240056427964971590e+03
2.642399999999999860e+00 4.231167478364423005e+03
2.642799999999999816e+00 4.222278528763874419e+03
2.643200000000000216e+00 4.213389579163315830e+03
2.643600000000000172e+00 4.204497387655339480e+03
2.644000000000000128e+00 4.195586333113290493e+03
2.644400000000000084e+00 4.186675278571242416e+03
2.644800000000000040e+00 4.177764224029194338e+03
2.645199999999999996e+00 4.168853169487145351e+03
2.645599999999999952e+00 4.159942114945097273e+03
2.645999999999999908e+00 4.151031060403049196e+03
2.646399999999999864e+00 4.142120005861000209e+03
2.646799999999999820e+00 4.133208951318952131e+03
2.647200000000000220e+00 4.124297896776894049e+03
2.647600000000000176e+00 4.115374418347878418e+03
2.648000000000000131e+00 4.106441148649601928e+03
2.648400000000000087e+00 4.097507878951325438e+03
2.648800000000000043e+00 4.088574609253049402e+03
2.649199999999999999e+00 4.079641339554772912e+03
2.649599999999999955e+00 4.070708069856496422e+03
2.649999999999999911e+00 4.061774800158219932e+03
2.650399999999999867e+00 4.052841530459943442e+03
2.650799999999999823e+00 4.043908260761666952e+03
2.651199999999999779e+00 4.034974991063390462e+03
2.651600000000000179e+00 4.026020605584271834e+03
2.652000000000000135e+00 4.017066128648627910e+03
2.652400000000000091e+00 4.008111651712984440e+03
2.652800000000000047e+00 3.999157174777340970e+03
2.653200000000000003e+00 3.990202697841697045e+03
2.653599999999999959e+00 3.981248220906053575e+03
2.653999999999999915e+00 3.972293743970409651e+03
2.654399999999999871e+00 3.963339267034766181e+03
2.654799999999999827e+00 3.954384790099122256e+03
2.655199999999999783e+00 3.945446717907147104e+03
2.655600000000000183e+00 3.936528313429404534e+03
2.656000000000000139e+00 3.927609908951671969e+03
2.656400000000000095e+00 3.918691504473939403e+03
2.656800000000000050e+00 3.909773099996206838e+03
2.657200000000000006e+00 3.900854695518474273e+03
2.657599999999999962e+00 3.891936291040741708e+03
2.657999999999999918e+00 3.883017886563009142e+03
2.658399999999999874e+00 3.874099482085276577e+03
2.658799999999999830e+00 3.865181077607544012e+03
2.659199999999999786e+00 3.856412449794614986e+03
2.659600000000000186e+00 3.847653976616195905e+03
2.660000000000000142e+00 3.838895503437786374e+03
2.660400000000000098e+00 3.830137030259376843e+03
2.660800000000000054e+00 3.821378557080967312e+03
2.661200000000000010e+00 3.812620083902558235e+03
2.661599999999999966e+00 3.803861610724148704e+03
2.661999999999999922e+00 3.795103137545739173e+03
2.662399999999999878e+00 3.786344664367330097e+03
2.662799999999999834e+00 3.777578221043225767e+03
2.663199999999999790e+00 3.768801572187864622e+03
2.663600000000000190e+00 3.760024923332493472e+03
2.664000000000000146e+00 3.751248274477132327e+03
2.664400000000000102e+00 3.742471625621770727e+03
2.664800000000000058e+00 3.733694976766409582e+03
2.665200000000000014e+00 3.724918327911048436e+03
2.665599999999999969e+00 3.716141679055687291e+03
2.665999999999999925e+00 3.707365030200326146e+03
2.666399999999999881e+00 3.698588381344964546e+03
2.666799999999999837e+00 3.689794740180435838e+03
2.667199999999999793e+00 3.681000394238535591e+03
2.667600000000000193e+00 3.672206048296625795e+03
2.668000000000000149e+00 3.663411702354725549e+03
2.668400000000000105e+00 3.654617356412825302e+03
2.668800000000000061e+00 3.645823010470925510e+03
2.669200000000000017e+00 3.637028664529025264e+03
2.669599999999999973e+00 3.628234318587125017e+03
2.669999999999999929e+00 3.619439972645224771e+03
2.670399999999999885e+00 3.610636168602398811e+03
2.670799999999999841e+00 3.601822941139785144e+03
2.671199999999999797e+00 3.593009713677171021e+03
2.671600000000000197e+00 3.584196486214547349e+03
2.672000000000000153e+00 3.575383258751933681e+03
2.672400000000000109e+00 3.566570031289319559e+03
2.672800000000000065e+00 3.557756803826705891e+03
2.673200000000000021e+00 3.548943576364091768e+03
2.673599999999999977e+00 3.540130348901478101e+03
2.673999999999999932e+00 3.531322560034530852e+03
2.674399999999999888e+00 3.522597155485441363e+03
2.674799999999999844e+00 3.513871750936351873e+03
2.675199999999999800e+00 3.505146346387262838e+03
2.675600000000000200e+00 3.496420941838163799e+03
2.676000000000000156e+00 3.487695537289074764e+03
2.676400000000000112e+00 3.478970132739985274e+03
2.676800000000000068e+00 3.470244728190895785e+03
2.677200000000000024e+00 3.461519323641806750e+03
2.677599999999999980e+00 3.452793919092717260e+03
2.677999999999999936e+00 3.444166204837682017e+03
2.678399999999999892e+00 3.435592541141804759e+03
2.678799999999999848e+00 3.427018877445927501e+03
2.679199999999999804e+00 3.418445213750049788e+03
2.679600000000000204e+00 3.409871550054162981e+03
2.680000000000000160e+00 3.401297886358285723e+03
2.680400000000000116e+00 3.392724222662408465e+03
2.680800000000000072e+00 3.384150558966531207e+03
2.681200000000000028e+00 3.375576895270653949e+03
2.681599999999999984e+00 3.366999201986203389e+03
2.681999999999999940e+00 3.358409192973163044e+03
2.682399999999999896e+00 3.349819183960122700e+03
2.682799999999999851e+00 3.341229174947082356e+03
2.683199999999999807e+00 3.332639165934042012e+03
2.683600000000000207e+00 3.324049156920992573e+03
2.684000000000000163e+00 3.315459147907952229e+03
2.684400000000000119e+00 3.306869138894911885e+03
2.684800000000000075e+00 3.298279129881871540e+03
2.685200000000000031e+00 3.289689120868831651e+03
2.685599999999999987e+00 3.281084408805051225e+03
2.685999999999999943e+00 3.272477444027642832e+03
2.686399999999999899e+00 3.263870479250233984e+03
2.686799999999999855e+00 3.255263514472825591e+03
2.687199999999999811e+00 3.246656549695416743e+03
2.687600000000000211e+00 3.238049584917998800e+03
2.688000000000000167e+00 3.229442620140589952e+03
2.688400000000000123e+00 3.220835655363181559e+03
2.688800000000000079e+00 3.212228690585772711e+03
